#Parameters = {D=5; L=135.5; R_=5; eps=4; gap=20; sig=0.1; zg=600}
#"Frequency / GHz"	"S3,2 [Magnitude in dB]"
#------------------------------------------
0.00000000000000	-108.53841573480
0.0020000000949949	-108.60485424332
0.0040000001899898	-108.80669517739
0.0060000000521541	-109.15185625988
0.0080000003799796	-109.65477993032
0.0099999997764826	-110.33868535013
0.012000000104308	-111.23970343076
0.014000000432134	-112.41445660319
0.016000000759959	-113.95431389509
0.017999999225140	-116.01184479801
0.019999999552965	-118.83349838624
0.021999999880791	-122.53441277963
0.024000000208616	-124.27482499632
0.026000000536442	-120.63306669412
0.028000000864267	-116.72809466157
0.029999999329448	-113.73749822178
0.032000001519918	-111.40648053855
0.034000001847744	-109.52043242459
0.035999998450279	-107.94940552647
0.037999998778105	-106.61327022533
0.039999999105930	-105.46011942500
0.041999999433756	-104.45471746694
0.043999999761581	-103.57219786049
0.046000000089407	-102.79444357965
0.048000000417233	-102.10791501634
0.050000000745058	-101.50229236270
0.052000001072884	-100.96958466848
0.054000001400709	-100.50353878631
0.056000001728535	-100.09922957629
0.057999998331070	-99.752771231815
0.059999998658895	-99.461106531252
0.061999998986721	-99.221851437456
0.064000003039837	-99.033180880717
0.065999999642372	-98.893735041770
0.068000003695488	-98.802539274961
0.070000000298023	-98.758941058726
0.071999996900558	-98.762531194133
0.074000000953674	-98.813067899948
0.075999997556210	-98.910361738465
0.078000001609325	-99.054133027207
0.079999998211861	-99.243783471205
0.082000002264977	-99.478069067811
0.083999998867512	-99.754602346867
0.086000002920628	-100.06911838101
0.087999999523163	-100.41442025012
0.090000003576279	-100.77896409083
0.092000000178814	-101.14512779082
0.093999996781349	-101.48758743657
0.096000000834465	-101.77277217379
0.097999997437000	-101.96101987006
0.10000000149012	-102.01304554144
0.10199999809265	-101.90018124675
0.10400000214577	-101.61409122790
0.10599999874830	-101.16985039526
0.10800000280142	-100.60017590711
0.10999999940395	-99.944852802985
0.11200000345707	-99.241426931026
0.11400000005960	-98.520220375189
0.11599999666214	-97.803236812542
0.11800000071526	-97.105202432955
0.11999999731779	-96.435292019760
0.12200000137091	-95.798761101745
0.12399999797344	-95.198236695260
0.12600000202656	-94.634642310097
0.12800000607967	-94.107834071949
0.12999999523163	-93.617011644228
0.13199999928474	-93.160988728641
0.13400000333786	-92.738359368472
0.13600000739098	-92.347597752764
0.13799999654293	-91.987116716447
0.14000000059605	-91.655300293462
0.14200000464916	-91.350508397257
0.14399999380112	-91.071076247659
0.14599999785423	-90.815308178210
0.14800000190735	-90.581459479085
0.15000000596046	-90.367715576630
0.15199999511242	-90.172173388765
0.15399999916553	-89.992820955399
0.15600000321865	-89.827520145135
0.15800000727177	-89.673988935206
0.15999999642372	-89.529795814345
0.16200000047684	-89.392361123112
0.16400000452995	-89.258968379540
0.16599999368191	-89.126793925751
0.16799999773502	-88.992952230427
0.17000000178814	-88.854565935871
0.17200000584126	-88.708838550709
0.17399999499321	-88.553161581409
0.17599999904633	-88.385212490026
0.17800000309944	-88.203063799670
0.18000000715256	-88.005267608540
0.18199999630451	-87.790932216574
0.18400000035763	-87.559756329370
0.18600000441074	-87.312024478222
0.18799999356270	-87.048578581310
0.18999999761581	-86.770736731894
0.19200000166893	-86.480207544282
0.19400000572205	-86.178979960826
0.19599999487400	-85.869213659309
0.19799999892712	-85.553136581939
0.20000000298023	-85.232958339647
0.20200000703335	-84.910796399500
0.20399999618530	-84.588623550698
0.20600000023842	-84.268234423326
0.20800000429153	-83.951223596140
0.20999999344349	-83.638977313108
0.21199999749660	-83.332675734401
0.21400000154972	-83.033295871047
0.21600000560284	-82.741631019155
0.21799999475479	-82.458296452747
0.21999999880791	-82.183747979293
0.22200000286102	-81.918295194043
0.22400000691414	-81.662116529158
0.22599999606609	-81.415270109166
0.22800000011921	-81.177704010794
0.23000000417233	-80.949269783111
0.23199999332428	-80.729728139431
0.23399999737740	-80.518756259906
0.23600000143051	-80.315958434300
0.23800000548363	-80.120864639199
0.23999999463558	-79.932946157113
0.24199999868870	-79.751613944829
0.24400000274181	-79.576224344136
0.24600000679493	-79.406091548997
0.24799999594688	-79.240487867001
0.25000000000000	-79.078654703865
0.25200000405312	-78.919811357389
0.25400000810623	-78.763162900191
0.25600001215935	-78.607913093723
0.25799998641014	-78.453276138861
0.25999999046326	-78.298487450636
0.26199999451637	-78.142821008982
0.26399999856949	-77.985596972059
0.26600000262260	-77.826202076730
0.26800000667572	-77.664094361489
0.27000001072884	-77.498820290560
0.27200001478195	-77.330018437127
0.27399998903275	-77.157429210879
0.27599999308586	-76.980897698973
0.27799999713898	-76.800373126014
0.28000000119209	-76.615903801368
0.28200000524521	-76.427637460464
0.28400000929832	-76.235810852259
0.28600001335144	-76.040733283211
0.28799998760223	-75.842786492706
0.28999999165535	-75.642396568455
0.29199999570847	-75.440036983810
0.29399999976158	-75.236201467735
0.29600000381470	-75.031397903062
0.29800000786781	-74.826132820482
0.30000001192093	-74.620903981322
0.30199998617172	-74.416187727185
0.30399999022484	-74.212432681919
0.30599999427795	-74.010050843983
0.30799999833107	-73.809417279340
0.31000000238419	-73.610860446021
0.31200000643730	-73.414660548133
0.31400001049042	-73.221050493450
0.31600001454353	-73.030213775471
0.31799998879433	-72.842285050190
0.31999999284744	-72.657347404791
0.32199999690056	-72.475438659006
0.32400000095367	-72.296551346617
0.32600000500679	-72.120631722000
0.32800000905991	-71.947587906104
0.33000001311302	-71.777289329002
0.33199998736382	-71.609569114528
0.33399999141693	-71.444231627339
0.33599999547005	-71.281052667335
0.33799999952316	-71.119784788414
0.34000000357628	-70.960162622559
0.34200000762939	-70.801905547121
0.34400001168251	-70.644726322505
0.34599998593330	-70.488330114307
0.34799998998642	-70.332427340068
0.34999999403954	-70.176728348803
0.35199999809265	-70.020960275302
0.35400000214577	-69.864861720943
0.35600000619888	-69.708192779220
0.35800001025200	-69.550738610684
0.36000001430511	-69.392310608407
0.36199998855591	-69.232753215057
0.36399999260902	-69.071941323656
0.36599999666214	-68.909786361233
0.36800000071526	-68.746233824934
0.37000000476837	-68.581265336781
0.37200000882149	-68.414897195716
0.37400001287460	-68.247177704205
0.37599998712540	-68.078186544730
0.37799999117851	-67.908029817595
0.37999999523163	-67.736839113988
0.38199999928474	-67.564765243587
0.38400000333786	-67.391976206627
0.38600000739098	-67.218651126552
0.38800001144409	-67.044978053225
0.38999998569489	-66.871147536041
0.39199998974800	-66.697348537324
0.39399999380112	-66.523769780660
0.39599999785423	-66.350586571506
0.39800000190735	-66.177968277016
0.40000000596046	-66.006066606947
0.40200001001358	-65.835020849253
0.40400001406670	-65.664949686826
0.40599998831749	-65.495951379368
0.40799999237061	-65.328105523061
0.40999999642372	-65.161469983025
0.41200000047684	-64.996080134399
0.41400000452995	-64.831949780334
0.41600000858307	-64.669068555344
0.41800001263618	-64.507412122037
0.41999998688698	-64.346928319617
0.42199999094009	-64.187551010101
0.42399999499321	-64.029196398393
0.42599999904633	-63.871765194906
0.42800000309944	-63.715143451584
0.43000000715256	-63.559207466365
0.43200001120567	-63.403824656418
0.43399998545647	-63.248857570244
0.43599998950958	-63.094160183570
0.43799999356270	-62.939591192003
0.43999999761581	-62.785007404669
0.44200000166893	-62.630269873005
0.44400000572205	-62.475247176693
0.44600000977516	-62.319818409012
0.44800001382828	-62.163870231731
0.44999998807907	-62.007305964210
0.45199999213219	-61.850041192607
0.45399999618530	-61.692009912185
0.45600000023842	-61.533162812299
0.45800000429153	-61.373468418662
0.46000000834465	-61.212914611512
0.46200001239777	-61.051507751496
0.46399998664856	-60.889270356790
0.46599999070168	-60.726243797720
0.46799999475479	-60.562485914059
0.46999999880791	-60.398067330400
0.47200000286102	-60.233073740299
0.47400000691414	-60.067602125614
0.47600001096725	-59.901756647763
0.47799998521805	-59.735649962436
0.47999998927116	-59.569400417570
0.48199999332428	-59.403125646961
0.48399999737740	-59.236948338289
0.48600000143051	-59.070983525591
0.48800000548363	-58.905348930300
0.49000000953674	-58.740153271260
0.49200001358986	-58.575496364501
0.49399998784065	-58.411473638143
0.49599999189377	-58.248165696688
0.49799999594688	-58.085643697247
0.50000000000000	-57.923965448255
0.50199997425079	-57.763177304330
0.50400000810623	-57.603309074284
0.50599998235703	-57.444378700798
0.50800001621246	-57.286388557408
0.50999999046326	-57.129326952998
0.51200002431870	-56.973169404404
0.51399999856949	-56.817874517404
0.51599997282028	-56.663392465725
0.51800000667572	-56.509655503385
0.51999998092651	-56.356589728891
0.52200001478195	-56.204108930133
0.52399998903275	-56.052116543285
0.52600002288818	-55.900510887215
0.52799999713898	-55.749182041457
0.52999997138977	-55.598016757104
0.53200000524521	-55.446898626230
0.53399997949600	-55.295707991998
0.53600001335144	-55.144328391424
0.53799998760223	-54.992643111473
0.54000002145767	-54.840540823900
0.54199999570847	-54.687914421025
0.54400002956390	-54.534664735151
0.54600000381470	-54.380700117698
0.54799997806549	-54.225938790094
0.55000001192093	-54.070310019097
0.55199998617172	-53.913753394965
0.55400002002716	-53.756222912436
0.55599999427795	-53.597685426775
0.55800002813339	-53.438119908054
0.56000000238419	-53.277517859621
0.56199997663498	-53.115886848061
0.56400001049042	-52.953242150704
0.56599998474121	-52.789616974970
0.56800001859665	-52.625053115574
0.56999999284744	-52.459600449859
0.57200002670288	-52.293321754672
0.57400000095367	-52.126285181801
0.57599997520447	-51.958565645845
0.57800000905991	-51.790245756105
0.57999998331070	-51.621408953033
0.58200001716614	-51.452140928372
0.58399999141693	-51.282530596693
0.58600002527237	-51.112663996965
0.58799999952316	-50.942626206138
0.58999997377396	-50.772498877084
0.59200000762939	-50.602361289450
0.59399998188019	-50.432283050855
0.59600001573563	-50.262332370521
0.59799998998642	-50.092567937041
0.60000002384186	-49.923040279543
0.60199999809265	-49.753792742618
0.60399997234344	-49.584860451667
0.60600000619888	-49.416269148382
0.60799998044968	-49.248034938192
0.61000001430511	-49.080165743841
0.61199998855591	-48.912659998631
0.61400002241135	-48.745507545494
0.61599999666214	-48.578690003345
0.61799997091293	-48.412181030148
0.62000000476837	-48.245946036935
0.62199997901917	-48.079944483671
0.62400001287460	-47.914129000822
0.62599998712540	-47.748448366955
0.62800002098083	-47.582842961583
0.62999999523163	-47.417254260070
0.63200002908707	-47.251615617048
0.63400000333786	-47.085863242354
0.63599997758865	-46.919929030407
0.63800001144409	-46.753746273681
0.63999998569489	-46.587246295646
0.64200001955032	-46.420366970402
0.64399999380112	-46.253043476224
0.64600002765656	-46.085217852653
0.64800000190735	-45.916834388653
0.64999997615814	-45.747843065357
0.65200001001358	-45.578198835643
0.65399998426437	-45.407861140499
0.65600001811981	-45.236798642121
0.65799999237061	-45.064984276742
0.66000002622604	-44.892398580469
0.66200000047684	-44.719029251244
0.66399997472763	-44.544870535365
0.66600000858307	-44.369925926058
0.66799998283386	-44.194201245977
0.67000001668930	-44.017713377839
0.67199999094009	-43.840482846291
0.67400002479553	-43.662536810415
0.67599999904633	-43.483907038837
0.67799997329712	-43.304632591715
0.68000000715256	-43.124752542775
0.68199998140335	-42.944315338586
0.68400001525879	-42.763367259842
0.68599998950958	-42.581958924865
0.68800002336502	-42.400142934282
0.68999999761581	-42.217973624623
0.69199997186661	-42.035504886693
0.69400000572205	-41.852789515096
0.69599997997284	-41.669883822093
0.69800001382828	-41.486837676799
0.69999998807907	-41.303704495719
0.70200002193451	-41.120529804288
0.70399999618530	-40.937361266102
0.70599997043610	-40.754242697447
0.70800000429153	-40.571214350987
0.70999997854233	-40.388312782460
0.71200001239777	-40.205573383657
0.71399998664856	-40.023023380543
0.71600002050400	-39.840690795968
0.71799999475479	-39.658596877638
0.72000002861023	-39.476759342741
0.72200000286102	-39.295195151864
0.72399997711182	-39.113913422830
0.72600001096725	-38.932920276396
0.72799998521805	-38.752220638518
0.73000001907349	-38.571814845110
0.73199999332428	-38.391698500431
0.73400002717972	-38.211865431198
0.73600000143051	-38.032306537865
0.73799997568130	-37.853010307044
0.74000000953674	-37.673961994278
0.74199998378754	-37.495144715053
0.74400001764297	-37.316540836292
0.74599999189377	-37.138129499745
0.74800002574921	-36.959889589994
0.75000000000000	-36.781798366425
0.75199997425079	-36.603831968189
0.75400000810623	-36.425967469942
0.75599998235703	-36.248180663052
0.75800001621246	-36.070445540641
0.75999999046326	-35.892740368294
0.76200002431870	-35.715040705207
0.76399999856949	-35.537321674440
0.76599997282028	-35.359564783425
0.76800000667572	-35.181748714054
0.76999998092651	-35.003853909583
0.77200001478195	-34.825862567625
0.77399998903275	-34.647759787839
0.77600002288818	-34.469533541296
0.77799999713898	-34.291170671137
0.77999997138977	-34.112664870165
0.78200000524521	-33.934008118157
0.78399997949600	-33.755198405938
0.78600001335144	-33.576235852589
0.78799998760223	-33.397121698738
0.79000002145767	-33.217862928294
0.79199999570847	-33.038467487540
0.79400002956390	-32.858948664740
0.79600000381470	-32.679320173454
0.79799997806549	-32.499601929845
0.80000001192093	-32.319816343817
0.80199998617172	-32.139986620194
0.80400002002716	-31.960143164883
0.80599999427795	-31.780315676753
0.80800002813339	-31.600541326725
0.81000000238419	-31.420857040037
0.81199997663498	-31.241302503471
0.81400001049042	-31.061923724165
0.81599998474121	-30.882766594933
0.81800001859665	-30.703879980669
0.81999999284744	-30.525316572782
0.82200002670288	-30.347129936646
0.82400000095367	-30.169377594703
0.82599997520447	-29.992117705263
0.82800000905991	-29.815412023453
0.82999998331070	-29.639322017523
0.83200001716614	-29.463913711004
0.83399999141693	-29.289248338620
0.83600002527237	-29.115397773125
0.83799999952316	-28.942427680919
0.83999997377396	-28.770406345475
0.84200000762939	-28.599405417477
0.84399998188019	-28.429491948666
0.84600001573563	-28.260739260491
0.84799998998642	-28.093217530636
0.85000002384186	-27.926996649747
0.85199999809265	-27.762147649208
0.85399997234344	-27.598742301132
0.85600000619888	-27.436848372951
0.85799998044968	-27.276537926790
0.86000001430511	-27.117877989431
0.86199998855591	-26.960937931253
0.86400002241135	-26.805783112789
0.86599999666214	-26.652482072468
0.86799997091293	-26.501098456830
0.87000000476837	-26.351697267193
0.87199997901917	-26.204340234709
0.87400001287460	-26.059088934240
0.87599998712540	-25.916002570477
0.87800002098083	-25.775140140884
0.87999999523163	-25.636558138065
0.88200002908707	-25.500311396216
0.88400000333786	-25.366454325543
0.88599997758865	-25.235037185412
0.88800001144409	-25.106111507695
0.88999998569489	-24.979724572928
0.89200001955032	-24.855922838363
0.89399999380112	-24.734749950014
0.89600002765656	-24.616249855349
0.89800000190735	-24.500463236766
0.89999997615814	-24.387427865553
0.90200001001358	-24.277182344370
0.90399998426437	-24.169760446856
0.90600001811981	-24.065194855415
0.90799999237061	-23.963517907141
0.91000002622604	-23.864758229312
0.91200000047684	-23.768943228972
0.91399997472763	-23.676098423765
0.91600000858307	-23.586244688355
0.91799998283386	-23.499405170770
0.92000001668930	-23.415599236042
0.92199999094009	-23.334844695198
0.92400002479553	-23.257154076805
0.92599999904633	-23.182542464503
0.92799997329712	-23.111019967929
0.93000000715256	-23.042596190702
0.93199998140335	-22.977276761285
0.93400001525879	-22.915067494286
0.93599998950958	-22.855970237216
0.93800002336502	-22.799985703801
0.93999999761581	-22.747112189664
0.94199997186661	-22.697345130700
0.94400000572205	-22.650679115355
0.94599997997284	-22.607103802271
0.94800001382828	-22.566609418078
0.94999998807907	-22.529184317921
0.95200002193451	-22.494809592758
0.95399999618530	-22.463469739882
0.95599997043610	-22.435143052416
0.95800000429153	-22.409807491049
0.95999997854233	-22.387437676029
0.96200001239777	-22.368005892676
0.96399998664856	-22.351480450292
0.96600002050400	-22.337829289131
0.96799999475479	-22.327016977523
0.97000002861023	-22.319005252830
0.97200000286102	-22.313753172215
0.97399997711182	-22.311217323726
0.97600001096725	-22.311352824517
0.97799998521805	-22.314109332523
0.98000001907349	-22.319436758577
0.98199999332428	-22.327281263885
0.98400002717972	-22.337587344476
0.98600000143051	-22.350295101673
0.98799997568130	-22.365345425539
0.99000000953674	-22.382673436767
0.99199998378754	-22.402214411612
0.99400001764297	-22.423902302657
0.99599999189377	-22.447664959696
0.99800002574921	-22.473433205844
1.0000000000000	-22.501132580753
1.0019999742508	-22.530690841032
1.0039999485016	-22.562031513389
1.0060000419617	-22.595079717870
1.0080000162125	-22.629755829899
1.0099999904633	-22.665983258110
1.0119999647141	-22.703686259621
1.0140000581741	-22.742784145100
1.0160000324249	-22.783201903962
1.0180000066757	-22.824861930526
1.0199999809265	-22.867690491199
1.0219999551773	-22.911611549071
1.0240000486374	-22.956555132335
1.0260000228882	-23.002450074085
1.0279999971390	-23.049228914342
1.0299999713898	-23.096827362320
1.0319999456406	-23.145183963298
1.0340000391006	-23.194241650286
1.0360000133514	-23.243944651555
1.0379999876022	-23.294244872701
1.0399999618530	-23.345095672758
1.0420000553131	-23.396455389846
1.0440000295639	-23.448288874122
1.0460000038147	-23.500563515552
1.0479999780655	-23.553253598692
1.0499999523163	-23.606337278329
1.0520000457764	-23.659797793162
1.0540000200272	-23.713623754844
1.0559999942780	-23.767809466745
1.0579999685287	-23.822352613510
1.0599999427795	-23.877256825426
1.0620000362396	-23.932528565027
1.0640000104904	-23.988178186630
1.0659999847412	-24.044223028492
1.0679999589920	-24.100681197069
1.0700000524521	-24.157574147973
1.0720000267029	-24.214926183770
1.0740000009537	-24.272764556866
1.0759999752045	-24.331117198736
1.0779999494553	-24.390013547907
1.0800000429153	-24.449483841045
1.0820000171661	-24.509559200030
1.0839999914169	-24.570269557840
1.0859999656677	-24.631644085802
1.0880000591278	-24.693711234069
1.0900000333786	-24.756498008545
1.0920000076294	-24.820027516687
1.0939999818802	-24.884320217940
1.0959999561310	-24.949395318808
1.0980000495911	-25.015266893118
1.1000000238419	-25.081945056570
1.1019999980927	-25.149435032393
1.1039999723434	-25.217739324791
1.1059999465942	-25.286852750121
1.1080000400543	-25.356765532984
1.1100000143051	-25.427464408688
1.1119999885559	-25.498927787160
1.1139999628067	-25.571130233868
1.1160000562668	-25.644038886612
1.1180000305176	-25.717617046017
1.1200000047684	-25.791820741821
1.1219999790192	-25.866601468044
1.1239999532700	-25.941904035848
1.1260000467300	-26.017669437279
1.1280000209808	-26.093833100680
1.1299999952316	-26.170325475471
1.1319999694824	-26.247075260845
