#Parameters = {D=5; L=135.5; R_=5; eps=4; gap=20; sig=0.1; zg=600}
#"Frequency / GHz"	"S3,2 [Magnitude in dB]"
#------------------------------------------
0.00000000000000	-108.56700549055
0.0020000000949949	-108.63358106666
0.0040000001899898	-108.83584573494
0.0060000000521541	-109.18176445522
0.0080000003799796	-109.68586904156
0.0099999997764826	-110.37154492934
0.012000000104308	-111.27521889467
0.014000000432134	-112.45408708631
0.016000000759959	-114.00072701042
0.017999999225140	-116.07059441027
0.019999999552965	-118.91803920899
0.021999999880791	-122.67588753420
0.024000000208616	-124.41735704152
0.026000000536442	-120.67421818999
0.028000000864267	-116.74134640997
0.029999999329448	-113.74499624832
0.032000001519918	-111.41298081400
0.034000001847744	-109.52710898746
0.035999998450279	-107.95654103387
0.037999998778105	-106.62089689743
0.039999999105930	-105.46818919029
0.041999999433756	-104.46316641138
0.043999999761581	-103.58095985679
0.046000000089407	-102.80345879858
0.048000000417233	-102.11712950016
0.050000000745058	-101.51165621266
0.052000001072884	-100.97905247263
0.054000001400709	-100.51306935316
0.056000001728535	-100.10878356166
0.057999998331070	-99.762309430122
0.059999998658895	-99.470590519995
0.061999998986721	-99.231241455185
0.064000003039837	-99.042434134768
0.065999999642372	-98.902805501079
0.068000003695488	-98.811376765746
0.070000000298023	-98.767486463555
0.071999996900558	-98.770717794213
0.074000000953674	-98.820816362087
0.075999997556210	-98.917580074271
0.078000001609325	-99.060707914222
0.079999998211861	-99.249578885621
0.082000002264977	-99.482922752558
0.083999998867512	-99.758316691338
0.086000002920628	-100.07146221747
0.087999999523163	-100.41512764160
0.090000003576279	-100.77774292806
0.092000000178814	-101.14169375412
0.093999996781349	-101.48172854306
0.096000000834465	-101.76443868533
0.097999997437000	-101.95044167670
0.10000000149012	-102.00080460004
0.10199999809265	-101.88717542994
0.10400000214577	-101.60134238038
0.10599999874830	-101.15825966820
0.10800000280142	-100.59034360994
0.10999999940395	-99.937047201229
0.11200000345707	-99.235655878509
0.11400000005960	-98.516329472639
0.11599999666214	-97.800997760497
0.11800000071526	-97.104368890103
0.11999999731779	-96.435630963345
0.12200000137091	-95.800060888073
0.12399999797344	-95.200312689358
0.12600000202656	-94.637338540271
0.12800000607967	-94.111015165549
0.12999999523163	-93.620563168686
0.13199999928474	-93.164811785085
0.13400000333786	-92.742367176660
0.13600000739098	-92.351714401914
0.13799999654293	-91.991277044083
0.14000000059605	-91.659441510733
0.14200000464916	-91.354575335632
0.14399999380112	-91.075018204937
0.14599999785423	-90.819077533888
0.14800000190735	-90.585011237752
0.15000000596046	-90.371007364512
0.15199999511242	-90.175166106204
0.15399999916553	-89.995478293126
0.15600000321865	-89.829808853651
0.15800000727177	-89.675880850664
0.15999999642372	-89.531266490287
0.16200000047684	-89.393389856656
0.16400000452995	-89.259544763735
0.16599999368191	-89.126914644228
0.16799999773502	-88.992624411512
0.17000000178814	-88.853804680441
0.17200000584126	-88.707673327125
0.17399999499321	-88.551628720097
0.17599999904633	-88.383361395851
0.17800000309944	-88.200950139147
0.18000000715256	-88.002957240015
0.18199999630451	-87.788494152153
0.18400000035763	-87.557259946994
0.18600000441074	-87.309539522872
0.18799999356270	-87.046166852293
0.18999999761581	-86.768455523663
0.19200000166893	-86.478104901611
0.19400000572205	-86.177093381450
0.19599999487400	-85.867571314420
0.19799999892712	-85.551756908468
0.20000000298023	-85.231850270815
0.20200000703335	-84.909960360502
0.20399999618530	-84.588052886643
0.20600000023842	-84.267919280797
0.20800000429153	-83.951146734990
0.20999999344349	-83.639119384734
0.21199999749660	-83.333013233416
0.21400000154972	-83.033806649971
0.21600000560284	-82.742289819223
0.21799999475479	-82.459078137344
0.21999999880791	-82.184627340353
0.22200000286102	-81.919247642539
0.22400000691414	-81.663117297404
0.22599999606609	-81.416295833152
0.22800000011921	-81.178732825928
0.23000000417233	-80.950280199091
0.23199999332428	-80.730699701695
0.23399999737740	-80.519671789524
0.23600000143051	-80.316798951076
0.23800000548363	-80.121616408300
0.23999999463558	-79.933595004544
0.24199999868870	-79.752146923441
0.24400000274181	-79.576633064826
0.24600000679493	-79.406368082817
0.24799999594688	-79.240626330318
0.25000000000000	-79.078652117534
0.25200000405312	-78.919666172633
0.25400000810623	-78.762877037725
0.25600001215935	-78.607490947715
0.25799998641014	-78.452723945356
0.25999999046326	-78.297814733291
0.26199999451637	-78.142038076786
0.26399999856949	-77.984719136289
0.26600000262260	-77.825242956748
0.26800000667572	-77.663071615747
0.27000001072884	-77.497751432836
0.27200001478195	-77.328922649836
0.27399998903275	-77.156325618370
0.27599999308586	-76.979804398617
0.27799999713898	-76.799307085439
0.28000000119209	-76.614883518587
0.28200000524521	-76.426680015131
0.28400000929832	-76.234928859613
0.28600001335144	-76.039940709804
0.28799998760223	-75.842091224830
0.28999999165535	-75.641809842619
0.29199999570847	-75.439563672170
0.29399999976158	-75.235845142057
0.29600000381470	-75.031159762875
0.29800000786781	-74.826012791230
0.30000001192093	-74.620900017532
0.30199998617172	-74.416296575991
0.30399999022484	-74.212648752930
0.30599999427795	-74.010368718233
0.30799999833107	-73.809828634288
0.31000000238419	-73.611356787825
0.31200000643730	-73.415232479547
0.31400001049042	-73.221690134371
0.31600001454353	-73.030911366118
0.31799998879433	-72.843029802955
0.31999999284744	-72.658131278336
0.32199999690056	-72.476251556601
0.32400000095367	-72.297384521718
0.32600000500679	-72.121477078774
0.32800000905991	-71.948436379631
0.33000001311302	-71.778132990468
0.33199998736382	-71.610401851996
0.33399999141693	-71.445048346629
0.33599999547005	-71.281846322755
0.33799999952316	-71.120551985437
0.34000000357628	-70.960900033987
0.34200000762939	-70.802610921633
0.34400001168251	-70.645396514591
0.34599998593330	-70.488965823835
0.34799998998642	-70.333026248943
0.34999999403954	-70.177293097914
0.35199999809265	-70.021490741695
0.35400000214577	-69.865360040963
0.35600000619888	-69.708662623965
0.35800001025200	-69.551182836270
0.36000001430511	-69.392733078545
0.36199998855591	-69.233156856368
0.36399999260902	-69.072330593507
0.36599999666214	-68.910164023825
0.36800000071526	-68.746604730676
0.37000000476837	-68.581633927062
0.37200000882149	-68.415265435370
0.37400001287460	-68.247549906345
0.37599998712540	-68.078563780520
0.37799999117851	-67.908414939264
0.37999999523163	-67.737233073178
0.38199999928474	-67.565169363489
0.38400000333786	-67.392389628753
0.38600000739098	-67.219074162396
0.38800001144409	-67.045408877822
0.38999998569489	-66.871583472558
0.39199998974800	-66.697789256809
0.39399999380112	-66.524210367856
0.39599999785423	-66.351024839930
0.39800000190735	-66.178398811321
0.40000000596046	-66.006487122846
0.40200001001358	-65.835425122109
0.40400001406670	-65.665331600109
0.40599998831749	-65.496308114804
0.40799999237061	-65.328429966003
0.40999999642372	-65.161758893711
0.41200000047684	-64.996327129521
0.41400000452995	-64.832148771392
0.41600000858307	-64.669218018713
0.41800001263618	-64.507503961861
0.41999998688698	-64.346959653269
0.42199999094009	-64.187518878914
0.42399999499321	-64.029097176151
0.42599999904633	-63.871595341922
0.42800000309944	-63.714900733003
0.43000000715256	-63.558891401719
0.43200001120567	-63.403433536372
0.43399998545647	-63.248389276996
0.43599998950958	-63.093616364374
0.43799999356270	-62.938973165966
0.43999999761581	-62.784315914807
0.44200000166893	-62.629507261594
0.44400000572205	-62.474416519325
0.44600000977516	-62.318921998087
0.44800001382828	-62.162913255827
0.44999998807907	-62.006291746984
0.45199999213219	-61.848974795362
0.45399999618530	-61.690896891650
0.45600000023842	-61.532008599749
0.45800000429153	-61.372279605033
0.46000000834465	-61.211697157459
0.46200001239777	-61.050266790276
0.46399998664856	-60.888012246629
0.46599999070168	-60.724975133005
0.46799999475479	-60.561212245587
0.46999999880791	-60.396795256302
0.47200000286102	-60.231809460543
0.47400000691414	-60.066349289610
0.47600001096725	-59.900521944459
0.47799998521805	-59.734437307082
0.47999998927116	-59.568215584875
0.48199999332428	-59.401971383035
0.48399999737740	-59.235828111500
0.48600000143051	-59.069902475380
0.48800000548363	-58.904309430053
0.49000000953674	-58.739158003860
0.49200001358986	-58.574548548945
0.49399998784065	-58.410573223043
0.49599999189377	-58.247314947171
0.49799999594688	-58.084845394952
0.50000000000000	-57.923220505888
0.50199997425079	-57.762486462012
0.50400000810623	-57.602674377065
0.50599998235703	-57.443800038847
0.50800001621246	-57.285867420064
0.50999999046326	-57.128863746193
0.51200002431870	-56.972763501041
0.51399999856949	-56.817528581407
0.51599997282028	-56.663105109754
0.51800000667572	-56.509428545922
0.51999998092651	-56.356423480370
0.52200001478195	-56.204003313806
0.52399998903275	-56.052073612481
0.52600002288818	-55.900529617534
0.52799999713898	-55.749264606610
0.52999997138977	-55.598162545092
0.53200000524521	-55.447109039081
0.53399997949600	-55.295982959733
0.53600001335144	-55.144668453000
0.53799998760223	-54.993048827525
0.54000002145767	-54.841013299853
0.54199999570847	-54.688453480068
0.54400002956390	-54.535269972444
0.54600000381470	-54.381372152573
0.54799997806549	-54.226676966727
0.55000001192093	-54.071114324207
0.55199998617172	-53.914623845200
0.55400002002716	-53.757157332425
0.55599999427795	-53.598682993675
0.55800002813339	-53.439179550143
0.56000000238419	-53.278637508403
0.56199997663498	-53.117064032181
0.56400001049042	-52.954475211500
0.56599998474121	-52.790903757491
0.56800001859665	-52.626388213581
0.56999999284744	-52.460982524072
0.57200002670288	-52.294746899141
0.57400000095367	-52.127749247892
0.57599997520447	-51.960064050170
0.57800000905991	-51.791774585993
0.57999998331070	-51.622963597902
0.58200001716614	-51.453715672172
0.58399999141693	-51.284121385779
0.58600002527237	-51.114264931236
0.58799999952316	-50.944232513318
0.58999997377396	-50.774106030098
0.59200000762939	-50.603960884272
0.59399998188019	-50.433872244052
0.59600001573563	-50.263904535742
0.59799998998642	-50.094117425824
0.60000002384186	-49.924561037225
0.60199999809265	-49.755280956492
0.60399997234344	-49.586310402703
0.60600000619888	-49.417674868356
0.60799998044968	-49.249390992741
0.61000001430511	-49.081467214812
0.61199998855591	-48.913902396327
0.61400002241135	-48.746686584682
0.61599999666214	-48.579801083032
0.61799997091293	-48.413219661177
0.62000000476837	-48.246908529723
0.62199997901917	-48.080827273190
0.62400001287460	-47.914928689011
0.62599998712540	-47.749160857805
0.62800002098083	-47.583466726787
0.62999999523163	-47.417785060914
0.63200002908707	-47.252053607500
0.63400000333786	-47.086205543459
0.63599997758865	-46.920174144930
0.63800001144409	-46.753892646692
0.63999998569489	-46.587293209613
0.64200001955032	-46.420313884886
0.64399999380112	-46.252890679777
0.64600002765656	-46.084965410431
0.64800000190735	-45.916483118971
0.64999997615814	-45.747393936787
0.65200001001358	-45.577653122155
0.65399998426437	-45.407220122345
0.65600001811981	-45.236065687599
0.65799999237061	-45.064159417362
0.66000002622604	-44.891486641111
0.66200000047684	-44.718032309611
0.66399997472763	-44.543792064678
0.66600000858307	-44.368767728679
0.66799998283386	-44.192969211417
0.67000001668930	-44.016409038667
0.67199999094009	-43.839111700886
0.67400002479553	-43.661102717948
0.67599999904633	-43.482415330820
0.67799997329712	-43.303086309304
0.68000000715256	-43.123157830579
0.68199998140335	-42.942675244601
0.68400001525879	-42.761687220609
0.68599998950958	-42.580244360045
0.68800002336502	-42.398398570868
0.68999999761581	-42.216203542488
0.69199997186661	-42.033714742984
0.69400000572205	-41.850984777180
0.69599997997284	-41.668068724473
0.69800001382828	-41.485018158714
0.69999998807907	-41.301883076734
0.70200002193451	-41.118713305824
0.70399999618530	-40.935553860091
0.70599997043610	-40.752449454560
0.70800000429153	-40.569440762219
0.70999997854233	-40.386562352053
0.71200001239777	-40.203850315578
0.71399998664856	-40.021333202315
0.71600002050400	-39.839036093952
0.71799999475479	-39.656984024452
0.72000002861023	-39.475193119264
0.72200000286102	-39.293677161588
0.72399997711182	-39.112449045367
0.72600001096725	-38.931514054962
0.72799998521805	-38.750876014230
0.73000001907349	-38.570534764632
0.73199999332428	-38.390485595924
0.73400002717972	-38.210724328496
0.73600000143051	-38.031240052614
0.73799997568130	-37.852020694339
0.74000000953674	-37.673053046509
0.74199998378754	-37.494318403837
0.74400001764297	-37.315799570183
0.74599999189377	-37.137475522893
0.74800002574921	-36.959325149082
0.75000000000000	-36.781325409508
0.75199997425079	-36.603452190578
0.75400000810623	-36.425681040783
0.75599998235703	-36.247988983399
0.75800001621246	-36.070350031379
0.75999999046326	-35.892740434888
0.76200002431870	-35.715136427479
0.76399999856949	-35.537515446745
0.76599997282028	-35.359853626457
0.76800000667572	-35.182133310120
0.76999998092651	-35.004332552381
0.77200001478195	-34.826435322382
0.77399998903275	-34.648424920173
0.77600002288818	-34.470288573093
0.77799999713898	-34.292015289906
0.77999997138977	-34.113594745088
0.78200000524521	-33.935022301036
0.78399997949600	-33.756294654739
0.78600001335144	-33.577409773630
0.78799998760223	-33.398371738278
0.79000002145767	-33.219184625184
0.79199999570847	-33.039857514529
0.79400002956390	-32.860403457394
0.79600000381470	-32.680836956897
0.79799997806549	-32.501175372879
0.80000001192093	-32.321442319374
0.80199998617172	-32.141661305925
0.80400002002716	-31.961861814535
0.80599999427795	-31.782074236711
0.80800002813339	-31.602334848688
0.81000000238419	-31.422680539459
0.81199997663498	-31.243153296004
0.81400001049042	-31.063794837615
0.81599998474121	-30.884654708945
0.81800001859665	-30.705779832184
0.81999999284744	-30.527223839214
0.82200002670288	-30.349039963334
0.82400000095367	-30.171285591183
0.82599997520447	-29.994019418996
0.82800000905991	-29.817303453851
0.82999998331070	-29.641197789142
0.83200001716614	-29.465769037655
0.83399999141693	-29.291081475022
0.83600002527237	-29.117202372633
0.83799999952316	-28.944200138868
0.83999997377396	-28.772143847231
0.84200000762939	-28.601103539741
0.84399998188019	-28.431147855918
0.84600001573563	-28.262349264826
0.84799998998642	-28.094776620161
0.85000002384186	-27.928503898340
0.85199999809265	-27.763599296984
0.85399997234344	-27.600134613538
0.85600000619888	-27.438179785234
0.85799998044968	-27.277804591060
0.86000001430511	-27.119078181147
0.86199998855591	-26.962068659664
0.86400002241135	-26.806843908517
0.86599999666214	-26.653469476330
0.86799997091293	-26.502010681025
0.87000000476837	-26.352530924965
0.87199997901917	-26.205095583324
0.87400001287460	-26.059764223144
0.87599998712540	-25.916596786420
0.87800002098083	-25.775651123812
0.87999999523163	-25.636985656080
0.88200002908707	-25.500653325003
0.88400000333786	-25.366710092012
0.88599997758865	-25.235206602529
0.88800001144409	-25.106192514384
0.88999998569489	-24.979717709374
0.89200001955032	-24.855826857141
0.89399999380112	-24.734565742044
0.89600002765656	-24.615976455930
0.89800000190735	-24.500100442914
0.89999997615814	-24.386975752283
0.90200001001358	-24.276640346750
0.90399998426437	-24.169129393007
0.90600001811981	-24.064474578562
0.90799999237061	-23.962710214610
0.91000002622604	-23.863862486025
0.91200000047684	-23.767959691347
0.91399997472763	-23.675027885186
0.91600000858307	-23.585088882726
0.91799998283386	-23.498166095537
0.92000001668930	-23.414275783602
0.92199999094009	-23.333437839090
0.92400002479553	-23.255666944779
0.92599999904633	-23.180974870183
0.92799997329712	-23.109375246276
0.93000000715256	-23.040874932533
0.93199998140335	-22.975481598210
0.93400001525879	-22.913201028793
0.93599998950958	-22.854033850400
0.93800002336502	-22.797981970237
0.93999999761581	-22.745042915821
0.94199997186661	-22.695214428341
0.94400000572205	-22.648488354741
0.94599997997284	-22.604857298322
0.94800001382828	-22.564310422595
0.94999998807907	-22.526835025891
0.95200002193451	-22.492414777214
0.95399999618530	-22.461032883768
0.95599997043610	-22.432668546863
0.95800000429153	-22.407299792455
0.95999997854233	-22.384901279950
0.96200001239777	-22.365444111630
0.96399998664856	-22.348899894193
0.96600002050400	-22.335235164001
0.96799999475479	-22.324413382522
0.97000002861023	-22.316398681122
0.97200000286102	-22.311149911899
0.97399997711182	-22.308623097503
0.97600001096725	-22.308773112730
0.97799998521805	-22.311552351200
0.98000001907349	-22.316908510621
0.98199999332428	-22.324788771264
0.98400002717972	-22.335136917859
0.98600000143051	-22.347895989864
0.98799997568130	-22.363003685835
0.99000000953674	-22.380398214061
0.99199998378754	-22.400012503398
0.99400001764297	-22.421781168189
0.99599999189377	-22.445634486693
0.99800002574921	-22.471501368870
1.0000000000000	-22.499309118270
1.0019999742508	-22.528982182317
1.0039999485016	-22.560446935887
1.0060000419617	-22.593625832466
1.0080000162125	-22.628443020249
1.0099999904633	-22.664820164097
1.0119999647141	-22.702678881193
1.0140000581741	-22.741943120174
1.0160000324249	-22.782533677824
1.0180000066757	-22.824373273193
1.0199999809265	-22.867388896922
1.0219999551773	-22.911503293108
1.0240000486374	-22.956646023971
1.0260000228882	-23.002745899137
1.0279999971390	-23.049735488152
1.0299999713898	-23.097549050783
1.0319999456406	-23.146125660082
1.0340000391006	-23.195404453828
1.0360000133514	-23.245333022246
1.0379999876022	-23.295858727115
1.0399999618530	-23.346937010964
1.0420000553131	-23.398524328537
1.0440000295639	-23.450583272862
1.0460000038147	-23.503082555949
1.0479999780655	-23.555993191438
1.0499999523163	-23.609294855042
1.0520000457764	-23.662967908462
1.0540000200272	-23.717001415240
1.0559999942780	-23.771387285688
1.0579999685287	-23.826123261293
1.0599999427795	-23.881210357950
1.0620000362396	-23.936656029162
1.0640000104904	-23.992469727435
1.0659999847412	-24.048666697242
1.0679999589920	-24.105264459938
1.0700000524521	-24.162283151353
1.0720000267029	-24.219748325572
1.0740000009537	-24.277683445095
1.0759999752045	-24.336118175036
1.0779999494553	-24.395081437662
1.0800000429153	-24.454601053280
1.0820000171661	-24.514708558494
1.0839999914169	-24.575433825033
1.0859999656677	-24.636805302002
1.0880000591278	-24.698850992540
1.0900000333786	-24.761597699808
1.0920000076294	-24.825067450589
1.0939999818802	-24.889282703222
1.0959999561310	-24.954259887612
1.0980000495911	-25.020015923235
1.1000000238419	-25.086558529423
1.1019999980927	-25.153894070130
1.1039999723434	-25.222025600875
1.1059999465942	-25.290946839460
1.1080000400543	-25.360650691312
1.1100000143051	-25.431122132964
1.1119999885559	-25.502340275875
1.1139999628067	-25.574281342741
1.1160000562668	-25.646913153099
1.1180000305176	-25.720198585434
1.1200000047684	-25.794094383594
1.1219999790192	-25.868554328663
1.1239999532700	-25.943523025819
1.1260000467300	-26.018943093405
1.1280000209808	-26.094750733622
1.1299999952316	-26.170878224235
1.1319999694824	-26.247254505539
