#Parameters = {D=5; L=135.5; R_=5; eps=4; gap=20; sig=0.1; zg=600}
#"Frequency / GHz"	"S1,1 [Magnitude in dB]"
#------------------------------------------
0.00000000000000	0.00000000000000
0.0020000000949949	-3.3509697242553e-06
0.0040000001899898	-1.4440238626471e-05
0.0060000000521541	-3.2235098007734e-05
0.0080000003799796	-5.6740038530052e-05
0.0099999997764826	-8.8996662368255e-05
0.012000000104308	-0.00012642401494121
0.014000000432134	-0.00017110201944077
0.016000000759959	-0.00021941672496909
0.017999999225140	-0.00027241461154772
0.019999999552965	-0.00033010751174823
0.021999999880791	-0.00039043640384813
0.024000000208616	-0.00045341353477553
0.026000000536442	-0.00051853319180512
0.028000000864267	-0.00058528901995966
0.029999999329448	-0.00065110286642090
0.032000001519918	-0.00071650181602499
0.034000001847744	-0.00078097634791879
0.035999998450279	-0.00084246173419859
0.037999998778105	-0.00090148042829541
0.039999999105930	-0.00095648105392488
0.041999999433756	-0.0010069461071434
0.043999999761581	-0.0010533905271577
0.046000000089407	-0.0010937385411003
0.048000000417233	-0.0011279816805071
0.050000000745058	-0.0011555918228063
0.052000001072884	-0.0011770729024065
0.054000001400709	-0.0011913738748467
0.056000001728535	-0.0011984750738669
0.057999998331070	-0.0011983558919314
0.059999998658895	-0.0011909922294868
0.061999998986721	-0.0011768755826288
0.064000003039837	-0.0011559780253697
0.065999999642372	-0.0011282700149719
0.068000003695488	-0.0010942385042017
0.070000000298023	-0.0010548859506389
0.071999996900558	-0.0010096619326721
0.074000000953674	-0.00096060464859863
0.075999997556210	-0.00090767921389311
0.078000001609325	-0.00085137228968199
0.079999998211861	-0.00079216724996689
0.082000002264977	-0.00073210348239503
0.083999998867512	-0.00067063445553995
0.086000002920628	-0.00060928462269129
0.087999999523163	-0.00054802788058882
0.090000003576279	-0.00048890985835562
0.092000000178814	-0.00043191059460508
0.093999996781349	-0.00037701094109584
0.096000000834465	-0.00032730106768144
0.097999997437000	-0.00028173375809643
0.10000000149012	-0.00024133734413570
0.10199999809265	-0.00020610216260834
0.10400000214577	-0.00017809848021276
0.10599999874830	-0.00015629126436842
0.10800000280142	-0.00014068192090640
0.10999999940395	-0.00013386727875624
0.11200000345707	-0.00013378595701974
0.11400000005960	-0.00014096663146715
0.11599999666214	-0.00015542001409705
0.11800000071526	-0.00017819818548528
0.11999999731779	-0.00020724738366300
0.12200000137091	-0.00024465446085557
0.12399999797344	-0.00028681220599341
0.12600000202656	-0.00033632417443603
0.12800000607967	-0.00039113826021028
0.12999999523163	-0.00045126765854139
0.13199999928474	-0.00051568657856371
0.13400000333786	-0.00058285565462469
0.13600000739098	-0.00065433436064945
0.13799999654293	-0.00072753599249281
0.14000000059605	-0.00080142435007607
0.14200000464916	-0.00087651646201075
0.14399999380112	-0.00095072815680538
0.14599999785423	-0.0010240465145432
0.14800000190735	-0.0010959361272093
0.15000000596046	-0.0011637809898048
0.15199999511242	-0.0012285855538038
0.15399999916553	-0.0012892760648708
0.15600000321865	-0.0013452974810068
0.15800000727177	-0.0013950455533917
0.15999999642372	-0.0014395027266857
0.16200000047684	-0.0014770551668727
0.16400000452995	-0.0015076447608439
0.16599999368191	-0.0015317175989403
0.16799999773502	-0.0015476487998385
0.17000000178814	-0.0015569129272432
0.17200000584126	-0.0015583983959192
0.17399999499321	-0.0015520249658146
0.17599999904633	-0.0015392623481935
0.17800000309944	-0.0015195020485294
0.18000000715256	-0.0014931817359842
0.18199999630451	-0.0014612476860983
0.18400000035763	-0.0014231025885205
0.18600000441074	-0.0013807291638182
0.18799999356270	-0.0013335314212815
0.18999999761581	-0.0012840182305774
0.19200000166893	-0.0012310892099097
0.19400000572205	-0.0011767287117288
0.19599999487400	-0.0011213937849150
0.19799999892712	-0.0010665865569310
0.20000000298023	-0.0010122371332799
0.20200000703335	-0.00095986319421163
0.20399999618530	-0.00091044399826819
0.20600000023842	-0.00086396032381613
0.20800000429153	-0.00082243766659730
0.20999999344349	-0.00078637417438642
0.21199999749660	-0.00075626884085835
0.21400000154972	-0.00073315640776163
0.21600000560284	-0.00071703096592389
0.21799999475479	-0.00070839965633412
0.21999999880791	-0.00070882243520295
0.22200000286102	-0.00071730321031414
0.22400000691414	-0.00073589354873802
0.22599999606609	-0.00076308531710922
0.22800000011921	-0.00079939912646879
0.23000000417233	-0.00084486066010131
0.23199999332428	-0.00090002913995348
0.23399999737740	-0.00096336617361536
0.23600000143051	-0.0010359313045099
0.23800000548363	-0.0011161845739633
0.23999999463558	-0.0012046834123582
0.24199999868870	-0.0013003865746097
0.24400000274181	-0.0014022908657695
0.24600000679493	-0.0015103949458384
0.24799999594688	-0.0016231230833449
0.25000000000000	-0.0017404968047121
0.25200000405312	-0.0018609415936676
0.25400000810623	-0.0019844140173880
0.25600001215935	-0.0021088118879179
0.25799998641014	-0.0022341189403831
0.25999999046326	-0.0023597173860473
0.26199999451637	-0.0024840301693981
0.26399999856949	-0.0026069636172211
0.26600000262260	-0.0027263527772119
0.26800000667572	-0.0028431544527063
0.27000001072884	-0.0029562190314821
0.27200001478195	-0.0030644001271221
0.27399998903275	-0.0031670401042393
0.27599999308586	-0.0032645457121075
0.27799999713898	-0.0033562344510857
0.28000000119209	-0.0034409476774382
0.28200000524521	-0.0035200639678122
0.28400000929832	-0.0035929144818930
0.28600001335144	-0.0036588078514342
0.28799998760223	-0.0037186397853903
0.28999999165535	-0.0037722010012464
0.29199999570847	-0.0038209209505684
0.29399999976158	-0.0038646084377330
0.29600000381470	-0.0039030944521726
0.29800000786781	-0.0039377920957722
0.30000001192093	-0.0039700712658786
0.30199998617172	-0.0039987561321284
0.30399999022484	-0.0040273315249077
0.30599999427795	-0.0040551384503391
0.30799999833107	-0.0040825594735606
0.31000000238419	-0.0041115477112013
0.31200000643730	-0.0041425308245902
0.31400001049042	-0.0041774376190499
0.31600001454353	-0.0042162137951793
0.31799998879433	-0.0042603281403846
0.31999999284744	-0.0043107557904128
0.32199999690056	-0.0043689793202263
0.32400000095367	-0.0044344446647137
0.32600000500679	-0.0045091791282488
0.32800000905991	-0.0045936967930569
0.33000001311302	-0.0046874620398154
0.33199998736382	-0.0047930350126390
0.33399999141693	-0.0049099208825486
0.33599999547005	-0.0050381187879623
0.33799999952316	-0.0051781518386895
0.34000000357628	-0.0053305764048486
0.34200000762939	-0.0054948761075136
0.34400001168251	-0.0056710744627178
0.34599998593330	-0.0058596795897556
0.34799998998642	-0.0060592091241191
0.34999999403954	-0.0062706412685483
0.35199999809265	-0.0064914297402008
0.35400000214577	-0.0067236732580259
0.35600000619888	-0.0069647068902029
0.35800001025200	-0.0072145180229158
0.36000001430511	-0.0074715538389624
0.36199998855591	-0.0077362505840632
0.36399999260902	-0.0080070058582407
0.36599999666214	-0.0082826797989515
0.36800000071526	-0.0085626621455134
0.37000000476837	-0.0088457933174920
0.37200000882149	-0.0091304334760780
0.37400001287460	-0.0094168726569142
0.37599998712540	-0.0097034312160788
0.37799999117851	-0.0099893653359696
0.37999999523163	-0.010274016732534
0.38199999928474	-0.010556525954728
0.38400000333786	-0.010835731720904
0.38600000739098	-0.011111790690661
0.38800001144409	-0.011383954762682
0.38999998569489	-0.011651397403725
0.39199998974800	-0.011914349455012
0.39399999380112	-0.012171440854475
0.39599999785423	-0.012425455058284
0.39800000190735	-0.012673470363351
0.40000000596046	-0.012917744487673
0.40200001001358	-0.013157945519248
0.40400001406670	-0.013394209079197
0.40599998831749	-0.013627273844995
0.40799999237061	-0.013858365982229
0.40999999642372	-0.014086556469798
0.41200000047684	-0.014315227352931
0.41400000452995	-0.014544009322388
0.41600000858307	-0.014774164366287
0.41800001263618	-0.015006990298331
0.41999998688698	-0.015243739971891
0.42199999094009	-0.015485661174479
0.42399999499321	-0.015733567705841
0.42599999904633	-0.015989378018229
0.42800000309944	-0.016254308115974
0.43000000715256	-0.016529310634559
0.43200001120567	-0.016816767562656
0.43399998545647	-0.017117011873661
0.43599998950958	-0.017430461448977
0.43799999356270	-0.017759624146707
0.43999999761581	-0.018105854503603
0.44200000166893	-0.018469169310207
0.44400000572205	-0.018849945366914
0.44600000977516	-0.019250782186224
0.44800001382828	-0.019670014277525
0.44999998807907	-0.020109689600277
0.45199999213219	-0.020569814823070
0.45399999618530	-0.021051399014372
0.45600000023842	-0.021553318535232
0.45800000429153	-0.022076609774345
0.46000000834465	-0.022620733776224
0.46200001239777	-0.023185107529675
0.46399998664856	-0.023769173403951
0.46599999070168	-0.024373301762070
0.46799999475479	-0.024995988673292
0.46999999880791	-0.025637024846532
0.47200000286102	-0.026295227029915
0.47400000691414	-0.026970529400775
0.47600001096725	-0.027660557594304
0.47799998521805	-0.028365170561653
0.47999998927116	-0.029083132640954
0.48199999332428	-0.029814025938139
0.48399999737740	-0.030555587974277
0.48600000143051	-0.031307390980918
0.48800000548363	-0.032068592268481
0.49000000953674	-0.032837655511088
0.49200001358986	-0.033613674043243
0.49399998784065	-0.034396649842375
0.49599999189377	-0.035183441969506
0.49799999594688	-0.035976149063057
0.50000000000000	-0.036773032947127
0.50199997425079	-0.037573064246519
0.50400000810623	-0.038377642148012
0.50599998235703	-0.039184537642656
0.50800001621246	-0.039995070339114
0.50999999046326	-0.040809210585278
0.51200002431870	-0.041627125866701
0.51399999856949	-0.042448171029413
0.51599997282028	-0.043274175530819
0.51800000667572	-0.044106474031137
0.51999998092651	-0.044944863235752
0.52200001478195	-0.045791158904985
0.52399998903275	-0.046645918244179
0.52600002288818	-0.047511296943512
0.52799999713898	-0.048388689519985
0.52999997138977	-0.049278302505221
0.53200000524521	-0.050183445967491
0.53399997949600	-0.051104396976655
0.53600001335144	-0.052044951405011
0.53799998760223	-0.053004850260280
0.54000002145767	-0.053987344404611
0.54199999570847	-0.054994241004133
0.54400002956390	-0.056027291368137
0.54600000381470	-0.057087753304807
0.54799997806549	-0.058178395229841
0.55000001192093	-0.059299385113501
0.55199998617172	-0.060454102015143
0.55400002002716	-0.061643089306219
0.55599999427795	-0.062868336964210
0.55800002813339	-0.064131466778087
0.56000000238419	-0.065433164396112
0.56199997663498	-0.066773722900023
0.56400001049042	-0.068155066769600
0.56599998474121	-0.069578089774231
0.56800001859665	-0.071043283958748
0.56999999284744	-0.072550180580096
0.57200002670288	-0.074099203732264
0.57400000095367	-0.075691675161016
0.57599997520447	-0.077326966431966
0.57800000905991	-0.079003844505761
0.57999998331070	-0.080722756608548
0.58200001716614	-0.082482896593406
0.58399999141693	-0.084284640301687
0.58600002527237	-0.086125725788680
0.58799999952316	-0.088006036858452
0.58999997377396	-0.089924370788069
0.59200000762939	-0.091880593629238
0.59399998188019	-0.093873270153316
0.59600001573563	-0.095901237186401
0.59799998998642	-0.097962745096437
0.60000002384186	-0.10005839721549
0.60199999809265	-0.10218619251650
0.60399997234344	-0.10434625955818
0.60600000619888	-0.10653590511606
0.60799998044968	-0.10875651102167
0.61000001430511	-0.11100755325178
0.61199998855591	-0.11328696989609
0.61400002241135	-0.11559598603911
0.61599999666214	-0.11793499181073
0.61799997091293	-0.12030333963539
0.62000000476837	-0.12270250994168
0.62199997901917	-0.12513163185471
0.62400001287460	-0.12759219401231
0.62599998712540	-0.13008641711604
0.62800002098083	-0.13261505847063
0.62999999523163	-0.13517941917170
0.63200002908707	-0.13778226520223
0.63400000333786	-0.14042515939698
0.63599997758865	-0.14311069517499
0.63800001144409	-0.14584085848862
0.63999998569489	-0.14861991953395
0.64200001955032	-0.15144953528750
0.64399999380112	-0.15433340800170
0.64600002765656	-0.15727545192788
0.64800000190735	-0.16027780467427
0.64999997615814	-0.16334639500656
0.65200001001358	-0.16648323279096
0.65399998426437	-0.16969134671852
0.65600001811981	-0.17297685394474
0.65799999237061	-0.17634192644240
0.66000002622604	-0.17979088017543
0.66200000047684	-0.18332850478860
0.66399997472763	-0.18695775686956
0.66600000858307	-0.19068216417776
0.66799998283386	-0.19450663753285
0.67000001668930	-0.19843336483162
0.67199999094009	-0.20246613913072
0.67400002479553	-0.20660910562278
0.67599999904633	-0.21086509894636
0.67799997329712	-0.21523597927642
0.68000000715256	-0.21972644927798
0.68199998140335	-0.22433685504341
0.68400001525879	-0.22907246694799
0.68599998950958	-0.23393261710355
0.68800002336502	-0.23892127023126
0.68999999761581	-0.24404059733298
0.69199997186661	-0.24929126773375
0.69400000572205	-0.25467432903903
0.69599997997284	-0.26019328641386
0.69800001382828	-0.26584793725051
0.69999998807907	-0.27164015290277
0.70200002193451	-0.27757074953145
0.70399999618530	-0.28364154355910
0.70599997043610	-0.28985334810275
0.70800000429153	-0.29620688682983
0.70999997854233	-0.30270378710833
0.71200001239777	-0.30934513020999
0.71399998664856	-0.31613341398468
0.71600002050400	-0.32306807444843
0.71799999475479	-0.33015316927028
0.72000002861023	-0.33738875200104
0.72200000286102	-0.34477851242777
0.72399997711182	-0.35232414654678
0.72600001096725	-0.36002921983748
0.72799998521805	-0.36789720385362
0.73000001907349	-0.37593072894447
0.73199999332428	-0.38413430657925
0.73400002717972	-0.39251267158817
0.73600000143051	-0.40106975426950
0.73799997568130	-0.40981373492514
0.74000000953674	-0.41874722722398
0.74199998378754	-0.42787855658401
0.74400001764297	-0.43721375760596
0.74599999189377	-0.44676130659448
0.74800002574921	-0.45652935108088
0.75000000000000	-0.46652576678319
0.75199997425079	-0.47676021328137
0.75400000810623	-0.48724125263060
0.75599998235703	-0.49797991772089
0.75800001621246	-0.50898669974350
0.75999999046326	-0.52027235949095
0.76200002431870	-0.53184849706262
0.76399999856949	-0.54372734486299
0.76599997282028	-0.55592090632260
0.76800000667572	-0.56844195945983
0.76999998092651	-0.58130370528335
0.77200001478195	-0.59451855916052
0.77399998903275	-0.60810131770139
0.77600002288818	-0.62206676655585
0.77799999713898	-0.63642661843775
0.77999997138977	-0.65119680528500
0.78200000524521	-0.66639160340263
0.78399997949600	-0.68202581065919
0.78600001335144	-0.69811464411881
0.78799998760223	-0.71467295474284
0.79000002145767	-0.73171528043267
0.79199999570847	-0.74925742751208
0.79400002956390	-0.76731513937309
0.79600000381470	-0.78590391045267
0.79799997806549	-0.80503893817074
0.80000001192093	-0.82473597887566
0.80199998617172	-0.84501219149298
0.80400002002716	-0.86588269043054
0.80599999427795	-0.88736445237470
0.80800002813339	-0.90947390122489
0.81000000238419	-0.93222807473757
0.81199997663498	-0.95564451759137
0.81400001049042	-0.97974070922041
0.81599998474121	-1.0045347070040
0.81800001859665	-1.0300466088587
0.81999999284744	-1.0562944376619
0.82200002670288	-1.0832993608613
0.82400000095367	-1.1110815357412
0.82599997520447	-1.1396631457027
0.82800000905991	-1.1690674873260
0.82999998331070	-1.1993165983088
0.83200001716614	-1.2304370871818
0.83399999141693	-1.2624553356973
0.83600002527237	-1.2953975400986
0.83799999952316	-1.3292935485628
0.83999997377396	-1.3641745499372
0.84200000762939	-1.4000717856001
0.84399998188019	-1.4370202790170
0.84600001573563	-1.4750553687277
0.84799998998642	-1.5142160111451
0.85000002384186	-1.5545414732474
0.85199999809265	-1.5960749059831
0.85399997234344	-1.6388599253781
0.85600000619888	-1.6829443153696
0.85799998044968	-1.7283770635815
0.86000001430511	-1.7752125306091
0.86199998855591	-1.8235034788979
0.86400002241135	-1.8733084161629
0.86599999666214	-1.9246887245123
0.86799997091293	-1.9777075203140
0.87000000476837	-2.0324307901837
0.87199997901917	-2.0889299963802
0.87400001287460	-2.1472763939078
0.87599998712540	-2.2075479873890
0.87800002098083	-2.2698227395979
0.87999999523163	-2.3341864924311
0.88200002908707	-2.4007247386868
0.88400000333786	-2.4695275643038
0.88599997758865	-2.5406905077047
0.88800001144409	-2.6143114680624
0.88999998569489	-2.6904937721443
0.89200001955032	-2.7693416657875
0.89399999380112	-2.8509677714529
0.89600002765656	-2.9354863148132
0.89800000190735	-3.0230163183684
0.89999997615814	-3.1136837220950
0.90200001001358	-3.2076171590308
0.90399998426437	-3.3049522224494
0.90600001811981	-3.4058292733374
0.90799999237061	-3.5103940487987
0.91000002622604	-3.6187990158853
0.91200000047684	-3.7312021755630
0.91399997472763	-3.8477708674034
0.91600000858307	-3.9686776294345
0.91799998283386	-4.0941033530905
0.92000001668930	-4.2242380576440
0.92199999094009	-4.3592843701144
0.92400002479553	-4.4994456537971
0.92599999904633	-4.6449448219928
0.92799997329712	-4.7960152072195
0.93000000715256	-4.9529008308470
0.93199998140335	-5.1158606107954
0.93400001525879	-5.2851699378349
0.93599998950958	-5.4611220567511
0.93800002336502	-5.6440251298438
0.93999999761581	-5.8342137081634
0.94199997186661	-6.0320443392898
0.94400000572205	-6.2378964426578
0.94599997997284	-6.4521830790961
0.94800001382828	-6.6753470499705
0.94999998807907	-6.9078689952056
0.95200002193451	-7.1502712445736
0.95399999618530	-7.4031226814573
0.95599997043610	-7.6670465684846
0.95800000429153	-7.9427252233842
0.95999997854233	-8.2309137012738
0.96200001239777	-8.5324468572502
0.96399998664856	-8.8482505690402
0.96600002050400	-9.1793616292918
0.96799999475479	-9.5269418447190
0.97000002861023	-9.8923059573612
0.97200000286102	-10.276940033098
0.97399997711182	-10.682545136745
0.97600001096725	-11.111076006944
0.97799998521805	-11.564792788146
0.98000001907349	-12.046336212448
0.98199999332428	-12.558809878999
0.98400002717972	-13.105905813764
0.98600000143051	-13.692057520517
0.98799997568130	-14.322652578764
0.99000000953674	-15.004332555992
0.99199998378754	-15.745413541888
0.99400001764297	-16.556494949779
0.99599999189377	-17.451378279518
0.99800002574921	-18.448488066121
1.0000000000000	-19.573180703602
1.0019999742508	-20.861652090666
1.0039999485016	-22.368002044904
1.0060000419617	-24.177908774665
1.0080000162125	-26.437346345585
1.0099999904633	-29.416830443550
1.0119999647141	-33.619896408102
1.0140000581741	-38.583301224323
1.0160000324249	-36.023594873644
1.0180000066757	-31.184042681111
1.0199999809265	-27.784742990299
1.0219999551773	-25.296729887678
1.0240000486374	-23.357282543061
1.0260000228882	-21.776156912155
1.0279999971390	-20.445767021095
1.0299999713898	-19.300209498425
1.0319999456406	-18.296427413930
1.0340000391006	-17.404824239759
1.0360000133514	-16.604207815817
1.0379999876022	-15.878899183025
1.0399999618530	-15.216976711468
1.0420000553131	-14.609164067961
1.0440000295639	-14.048101302693
1.0460000038147	-13.527850536267
1.0479999780655	-13.043550127692
1.0499999523163	-12.591169707986
1.0520000457764	-12.167326851672
1.0540000200272	-11.769154790498
1.0559999942780	-11.394201480217
1.0579999685287	-11.040354396594
1.0599999427795	-10.705774850187
1.0620000362396	-10.388857408879
1.0640000104904	-10.088183959002
1.0659999847412	-9.8025028055595
1.0679999589920	-9.5306956346412
1.0700000524521	-9.2717644690227
1.0720000267029	-9.0248101773090
1.0740000009537	-8.7890233086712
